# Z_nm	Fit_totale_conteggi	Gauss1_conteggi	Gauss2_conteggi
Distribuzione delle altezze tramite la convoluzione di due Gaussiane (Foto si vede meglio)

X		Y(Conv_Gauss)	Y(Gauss_1_blu)	Y(Gauss_2_verde)
0.000000	10.480147	7.095597	3.384550
0.017372	10.841170	7.376681	3.464489
0.034745	11.214055	7.667925	3.546130
0.052117	11.599158	7.969654	3.629504
0.069490	11.996846	8.282202	3.714644
0.086862	12.407494	8.605913	3.801581
0.104234	12.831488	8.941139	3.890349
0.121607	13.269223	9.288242	3.980981
0.138979	13.721103	9.647593	4.073510
0.156352	14.187543	10.019572	4.167971
0.173724	14.668969	10.404570	4.264399
0.191096	15.165817	10.802987	4.362829
0.208469	15.678532	11.215235	4.463297
0.225841	16.207572	11.641733	4.565838
0.243214	16.753404	12.082914	4.670491
0.260586	17.316510	12.539219	4.777291
0.277958	17.897378	13.011101	4.886277
0.295331	18.496512	13.499024	4.997487
0.312703	19.114425	14.003464	5.110961
0.330075	19.751643	14.524907	5.226736
0.347448	20.408704	15.063850	5.344854
0.364820	21.086158	15.620804	5.465354
0.382193	21.784568	16.196290	5.588277
0.399565	22.504508	16.790843	5.713666
0.416937	23.246567	17.405007	5.841561
0.434310	24.011346	18.039341	5.972005
0.451682	24.799458	18.694416	6.105043
0.469055	25.611531	19.370815	6.240716
0.486427	26.448205	20.069135	6.379070
0.503799	27.310135	20.789986	6.520149
0.521172	28.197987	21.533990	6.663998
0.538544	29.112445	22.301782	6.810663
0.555917	30.054204	23.094013	6.960191
0.573289	31.023974	23.911345	7.112629
0.590661	32.022479	24.754455	7.268024
0.608034	33.050458	25.624034	7.426424
0.625406	34.108665	26.520787	7.587879
0.642779	35.197868	27.445432	7.752436
0.660151	36.318850	28.398703	7.920147
0.677523	37.472408	29.381347	8.091061
0.694896	38.659357	30.394127	8.265230
0.712268	39.880523	31.437819	8.442705
0.729641	41.136752	32.513214	8.623538
0.747013	42.428902	33.621120	8.807782
0.764385	43.757847	34.762356	8.995491
0.781758	45.124478	35.937760	9.186718
0.799130	46.529700	37.148183	9.381518
0.816503	47.974436	38.394490	9.579945
0.833875	49.459621	39.677565	9.782057
0.851247	50.986210	40.998302	9.987908
0.868620	52.555172	42.357616	10.197556
0.885992	54.167491	43.756433	10.411058
0.903364	55.824168	45.195696	10.628472
0.920737	57.526221	46.676363	10.849858
0.938109	59.274682	48.199408	11.075273
0.955482	61.070600	49.765821	11.304779
0.972854	62.915040	51.376606	11.538434
0.990226	64.809083	53.032782	11.776302
1.007599	66.753827	54.735385	12.018442
1.024971	68.750382	56.485465	12.264917
1.042344	70.799879	58.284088	12.515791
1.059716	72.903461	60.132336	12.771126
1.077088	75.062289	62.031303	13.030986
1.094461	77.277538	63.982102	13.295436
1.111833	79.550399	65.985859	13.564540
1.129206	81.882079	68.043713	13.838366
1.146578	84.273799	70.156821	14.116978
1.163950	86.726798	72.326354	14.400444
1.181323	89.242325	74.553494	14.688831
1.198695	91.821649	76.839442	14.982207
1.216068	94.466051	79.185410	15.280641
1.233440	97.176826	81.592624	15.584202
1.250812	99.955284	84.062325	15.892959
1.268185	102.802750	86.595767	16.206983
1.285557	105.720561	89.194217	16.526344
1.302930	108.710068	91.858954	16.851114
1.320302	111.772636	94.591271	17.181365
1.337674	114.909642	97.392473	17.517168
1.355047	118.122475	100.263877	17.858598
1.372419	121.412538	103.206811	18.205727
1.389791	124.781246	106.222616	18.558630
1.407164	128.230023	109.312642	18.917381
1.424536	131.760306	112.478251	19.282055
1.441909	135.373543	115.720816	19.652727
1.459281	139.071192	119.041718	20.029474
1.476653	142.854721	122.442349	20.412372
1.494026	146.725607	125.924108	20.801499
1.511398	150.685336	129.488405	21.196931
1.528771	154.735404	133.136657	21.598747
1.546143	158.877312	136.870287	22.007025
1.563515	163.112572	140.690728	22.421843
1.580888	167.442700	144.599417	22.843283
1.598260	171.869220	148.597798	23.271422
1.615633	176.393662	152.687320	23.706342
1.633005	181.017560	156.869437	24.148123
1.650377	185.742452	161.145606	24.596846
1.667750	190.569882	165.517290	25.052592
1.685122	195.501396	169.985952	25.515444
1.702495	200.538542	174.553059	25.985483
1.719867	205.682871	179.220078	26.462793
1.737239	210.935934	183.988478	26.947456
1.754612	216.299283	188.859727	27.439556
1.771984	221.774469	193.835293	27.939176
1.789357	227.363043	198.916642	28.446401
1.806729	233.066552	204.105238	28.961314
1.824101	238.886542	209.402542	29.484000
1.841474	244.824554	214.810009	30.014545
1.858846	250.882125	220.329092	30.553033
1.876219	257.060787	225.961236	31.099551
1.893591	263.362064	231.707881	31.654183
1.910963	269.787475	237.570459	32.217015
1.928336	276.338528	243.550393	32.788135
1.945708	283.016725	249.649097	33.367628
1.963080	289.823555	255.867974	33.955581
1.980453	296.760497	262.208416	34.552081
1.997825	303.829019	268.671804	35.157215
2.015198	311.030573	275.259503	35.771070
2.032570	318.366599	281.972866	36.393733
2.049942	325.838521	288.813230	37.025292
2.067315	333.447747	295.781913	37.665834
2.084687	341.195665	302.880219	38.315446
2.102060	349.083649	310.109431	38.974218
2.119432	357.113049	317.470814	39.642235
2.136804	365.285196	324.965609	40.319587
2.154177	373.601398	332.595038	41.006360
2.171549	382.062942	340.360298	41.702643
2.188922	390.671087	348.262564	42.408523
2.206294	399.427070	356.302981	43.124089
2.223666	408.332099	364.482672	43.849427
2.241039	417.387355	372.802729	44.584626
2.258411	426.593989	381.264217	45.329772
2.275784	435.953122	389.868167	46.084954
2.293156	445.465843	398.615584	46.850259
2.310528	455.133208	407.507435	47.625773
2.327901	464.956240	416.544655	48.411584
2.345273	474.935924	425.728146	49.207779
2.362646	485.073212	435.058768	50.014443
2.380018	495.369013	444.537350	50.831664
2.397390	505.824202	454.164676	51.659527
2.414763	516.439610	463.941493	52.498118
2.432135	527.216027	473.868505	53.347522
2.449508	538.154200	483.946375	54.207825
2.466880	549.254831	494.175721	55.079111
2.484252	560.518578	504.557114	55.961464
2.501625	571.946050	515.091081	56.854970
2.518997	583.537810	525.778100	57.759710
2.536369	595.294369	536.618600	58.675768
2.553742	607.216188	547.612960	59.603228
2.571114	619.303678	558.761508	60.542170
2.588487	631.557194	570.064517	61.492677
2.605859	643.977038	581.522209	62.454829
2.623231	656.563456	593.134749	63.428707
2.640604	669.316638	604.902247	64.414391
2.657976	682.236713	616.824753	65.411960
2.675349	695.323753	628.902260	66.421492
2.692721	708.577769	641.134703	67.443066
2.710093	721.998711	653.521952	68.476759
2.727466	735.586465	666.063818	69.522646
2.744838	749.340852	678.760048	70.580805
2.762211	763.261632	691.610323	71.651309
2.779583	777.348494	704.614262	72.734232
2.796955	791.601062	717.771414	73.829648
2.814328	806.018893	731.081263	74.937630
2.831700	820.601471	744.543224	76.058248
2.849073	835.348215	758.156642	77.191573
2.866445	850.258467	771.920792	78.337674
2.883817	865.331500	785.834879	79.496621
2.901190	880.566515	799.898035	80.668480
2.918562	895.962635	814.109317	81.853318
2.935935	911.518912	828.467711	83.051201
2.953307	927.234320	842.972127	84.262192
2.970679	943.107757	857.621401	85.486356
2.988052	959.138044	872.414292	86.723753
3.005424	975.323926	887.349481	87.974444
3.022796	991.664064	902.425575	89.238490
3.040169	1008.157046	917.641099	90.515947
3.057541	1024.801376	932.994502	91.806875
3.074914	1041.595480	948.484153	93.111327
3.092286	1058.537700	964.108342	94.429358
3.109658	1075.626300	979.865278	95.761022
3.127031	1092.859460	995.753091	97.106369
3.144403	1110.235278	1011.769829	98.465450
3.161776	1127.751771	1027.913458	99.838313
3.179148	1145.406872	1044.181866	101.225005
3.196520	1163.198430	1060.572857	102.625573
3.213893	1181.124211	1077.084152	104.040059
3.231265	1199.181900	1093.713393	105.468507
3.248638	1217.369095	1110.458138	106.910957
3.266010	1235.683312	1127.315864	108.367448
3.283382	1254.121985	1144.283967	109.838017
3.300755	1272.682461	1161.359759	111.322701
3.318127	1291.362005	1178.540473	112.821533
3.335500	1310.157802	1195.823257	114.334545
3.352872	1329.066948	1213.205181	115.861767
3.370244	1348.086462	1230.683233	117.403229
3.387617	1367.213276	1248.254320	118.958956
3.404989	1386.444243	1265.915269	120.528973
3.422362	1405.776133	1283.662829	122.113304
3.439734	1425.205636	1301.493668	123.711968
3.457106	1444.729361	1319.404375	125.324985
3.474479	1464.343836	1337.391464	126.952372
3.491851	1484.045512	1355.451370	128.594142
3.509224	1503.830760	1373.580451	130.250309
3.526596	1523.695874	1391.774990	131.920883
3.543968	1543.637071	1410.031198	133.605873
3.561341	1563.650492	1428.345208	135.305284
3.578713	1583.732204	1446.713083	137.019121
3.596085	1603.878200	1465.130814	138.747386
3.613458	1624.084399	1483.594322	140.490077
3.630830	1644.346649	1502.099457	142.247192
3.648203	1664.660730	1520.642004	144.018726
3.665575	1685.022349	1539.217678	145.804671
3.682947	1705.427148	1557.822131	147.605017
3.700320	1725.870703	1576.450950	149.419753
3.717692	1746.348523	1595.099660	151.248863
3.735065	1766.856055	1613.763725	153.092331
3.752437	1787.388685	1632.438550	154.950136
3.769809	1807.941738	1651.119482	156.822256
3.787182	1828.510480	1669.801812	158.708667
3.804554	1849.090121	1688.480779	160.609342
3.821927	1869.675816	1707.151566	162.524250
3.839299	1890.262668	1725.809308	164.453360
3.856671	1910.845726	1744.449091	166.396635
3.874044	1931.419994	1763.065955	168.354039
3.891416	1951.980426	1781.654895	170.325531
3.908789	1972.521931	1800.210864	172.311068
3.926161	1993.039376	1818.728773	174.310603
3.943533	2013.527586	1837.203498	176.324089
3.960906	2033.981350	1855.629876	178.351474
3.978278	2054.395416	1874.002713	180.392703
3.995651	2074.764503	1892.316783	182.447720
4.013023	2095.083296	1910.566831	184.516465
4.030395	2115.346450	1928.747574	186.598875
4.047768	2135.548593	1946.853708	188.694885
4.065140	2155.684331	1964.879904	190.804427
4.082513	2175.748245	1982.820818	192.927428
4.099885	2195.734900	2000.671085	195.063814
4.117257	2215.638840	2018.425330	197.213509
4.134630	2235.454598	2036.078165	199.376433
4.152002	2255.176695	2053.624194	201.552501
4.169374	2274.799641	2071.058013	203.741628
4.186747	2294.317943	2088.374218	205.943725
4.204119	2313.726102	2105.567402	208.158700
4.221492	2333.018618	2122.632162	210.386456
4.238864	2352.189996	2139.563099	212.626897
4.256236	2371.234743	2156.354821	214.879921
4.273609	2390.147373	2173.001950	217.145424
4.290981	2408.922415	2189.499118	219.423297
4.308354	2427.554405	2205.840974	221.713431
4.325726	2446.037900	2222.022188	224.015711
4.343098	2464.367473	2238.037451	226.330022
4.360471	2482.537721	2253.881478	228.656243
4.377843	2500.543265	2269.549014	230.994251
4.395216	2518.378752	2285.034831	233.343921
4.412588	2536.038862	2300.333739	235.705122
4.429960	2553.518306	2315.440582	238.077723
4.447333	2570.811832	2330.350244	240.461588
4.464705	2587.914229	2345.057650	242.856579
4.482078	2604.820325	2359.557771	245.262553
4.499450	2621.524993	2373.845627	247.679366
4.516822	2638.023157	2387.916287	250.106870
4.534195	2654.309787	2401.764873	252.544913
4.551567	2670.379909	2415.386567	254.993341
4.568940	2686.228604	2428.776606	257.451997
4.586312	2701.851012	2441.930292	259.920720
4.603684	2717.242334	2454.842989	262.399346
4.621057	2732.397838	2467.510130	264.887707
4.638429	2747.312854	2479.927219	267.385635
4.655802	2761.982787	2492.089830	269.892956
4.673174	2776.403109	2503.993615	272.409494
4.690546	2790.569371	2515.634302	274.935069
4.707919	2804.477200	2527.007701	277.469499
4.725291	2818.122301	2538.109704	280.012597
4.742663	2831.500465	2548.936289	282.564177
4.760036	2844.607565	2559.483520	285.124045
4.777408	2857.439563	2569.747555	287.692007
4.794781	2869.992508	2579.724642	290.267866
4.812153	2882.262544	2589.411124	292.851419
4.829525	2894.245907	2598.803442	295.442465
4.846898	2905.938930	2607.898135	298.040795
4.864270	2917.338044	2616.691844	300.646200
4.881643	2928.439783	2625.181316	303.258467
4.899015	2939.240779	2633.363398	305.877381
4.916387	2949.737772	2641.235050	308.502722
4.933760	2959.927607	2648.793338	311.134269
4.951132	2969.807239	2656.035440	313.771799
4.968505	2979.373730	2662.958648	316.415082
4.985877	2988.624257	2669.560367	319.063891
5.003249	2997.556108	2675.838118	321.717991
5.020622	3006.166688	2681.789542	324.377146
5.037994	3014.453516	2687.412396	327.041119
5.055367	3022.414231	2692.704562	329.709669
5.072739	3030.046590	2697.664039	332.382551
5.090111	3037.348472	2702.288953	335.059519
5.107484	3044.317877	2706.577553	337.740323
5.124856	3050.952927	2710.528214	340.424713
5.142229	3057.251869	2714.139436	343.112433
5.159601	3063.213075	2717.409848	345.803227
5.176973	3068.835043	2720.338208	348.496835
5.194346	3074.116397	2722.923401	351.192996
5.211718	3079.055889	2725.164444	353.891445
5.229090	3083.652398	2727.060482	356.591916
5.246463	3087.904934	2728.610795	359.294139
5.263835	3091.812633	2729.814790	361.997843
5.281208	3095.374763	2730.672008	364.702755
5.298580	3098.590721	2731.182124	367.408598
5.315952	3101.460035	2731.344941	370.115094
5.333325	3103.982361	2731.160398	372.821963
5.350697	3106.157489	2730.628565	375.528924
5.368070	3107.985336	2729.749646	378.235690
5.385442	3109.465951	2728.523974	380.941976
5.402814	3110.599513	2726.952019	383.647494
5.420187	3111.386331	2725.034379	386.351952
5.437559	3111.826843	2722.771784	389.055059
5.454932	3111.921617	2720.165096	391.756521
5.472304	3111.671349	2717.215308	394.456041
5.489676	3111.076864	2713.923541	397.153322
5.507049	3110.139112	2710.291047	399.848065
5.524421	3108.859172	2706.319204	402.539968
5.541794	3107.238249	2702.009519	405.228730
5.559166	3105.277671	2697.363626	407.914045
5.576538	3102.978892	2692.383284	410.595608
5.593911	3100.343488	2687.070375	413.273113
5.611283	3097.373156	2681.426905	415.946251
5.628656	3094.069716	2675.455004	418.614712
5.646028	3090.435104	2669.156919	421.278185
5.663400	3086.471377	2662.535018	423.936359
5.680773	3082.180706	2655.591787	426.588919
5.698145	3077.565379	2648.329827	429.235552
5.715518	3072.627797	2640.751855	431.875942
5.732890	3067.370472	2632.860700	434.509773
5.750262	3061.796027	2624.659300	437.136727
5.767635	3055.907193	2616.150707	439.756486
5.785007	3049.706807	2607.338075	442.368733
5.802379	3043.197812	2598.224666	444.973146
5.819752	3036.383253	2588.813847	447.569406
5.837124	3029.266275	2579.109083	450.157191
5.854497	3021.850122	2569.113940	452.736182
5.871869	3014.138136	2558.832081	455.306054
5.889241	3006.133751	2548.267263	457.866488
5.906614	2997.840494	2537.423335	460.417159
5.923986	2989.261984	2526.304239	462.957745
5.941359	2980.401924	2514.914000	465.487924
5.958731	2971.264104	2503.256733	468.007371
5.976103	2961.852398	2491.336633	470.515765
5.993476	2952.170757	2479.157977	473.012780
6.010848	2942.223213	2466.725118	475.498096
6.028221	2932.013872	2454.042485	477.971387
6.045593	2921.546912	2441.114580	480.432332
6.062965	2910.826583	2427.945974	482.880609
6.080338	2899.857202	2414.541307	485.315894
6.097710	2888.643149	2400.905282	487.737867
6.115083	2877.188869	2387.042663	490.146206
6.132455	2865.498865	2372.958275	492.540590
6.149827	2853.577697	2358.656997	494.920699
6.167200	2841.429979	2344.143764	497.286215
6.184572	2829.060377	2329.423560	499.636817
6.201945	2816.473605	2314.501416	501.972189
6.219317	2803.674424	2299.382409	504.292014
6.236689	2790.667635	2284.071659	506.595976
6.254062	2777.458082	2268.574323	508.883760
6.271434	2764.050646	2252.895595	511.155052
6.288807	2750.450242	2237.040703	513.409540
6.306179	2736.661817	2221.014905	515.646912
6.323551	2722.690346	2204.823487	517.866859
6.340924	2708.540832	2188.471760	520.069072
6.358296	2694.218300	2171.965055	522.253245
6.375668	2679.727796	2155.308725	524.419071
6.393041	2665.074384	2138.508137	526.566247
6.410413	2650.263142	2121.568672	528.694470
6.427786	2635.299162	2104.495721	530.803441
6.445158	2620.187544	2087.294684	532.892860
6.462530	2604.933396	2069.970964	534.962432
6.479903	2589.541829	2052.529968	537.011861
6.497275	2574.017955	2034.977101	539.040855
6.514648	2558.366887	2017.317765	541.049122
6.532020	2542.593732	1999.557356	543.036376
6.549392	2526.703590	1981.701261	545.002329
6.566765	2510.701554	1963.754856	546.946698
6.584137	2494.592705	1945.723503	548.869202
6.601510	2478.382107	1927.612547	550.769560
6.618882	2462.074812	1909.427314	552.647498
6.636254	2445.675848	1891.173107	554.502741
6.653627	2429.190226	1872.855208	556.335018
6.670999	2412.622929	1854.478869	558.144060
6.688372	2395.978916	1836.049314	559.929602
6.705744	2379.263119	1817.571737	561.691381
6.723116	2362.480435	1799.051298	563.429137
6.740489	2345.635731	1780.493118	565.142612
6.757861	2328.733838	1761.902284	566.831554
6.775234	2311.779551	1743.283840	568.495711
6.792606	2294.777624	1724.642789	570.134835
6.809978	2277.732769	1705.984087	571.748682
6.827351	2260.649658	1687.312646	573.337011
6.844723	2243.532913	1668.633329	574.899584
6.862095	2226.387114	1649.950947	576.436167
6.879468	2209.216788	1631.270259	577.946529
6.896840	2192.026413	1612.595971	579.430441
6.914213	2174.820414	1593.932733	580.887682
6.931585	2157.603164	1575.285135	582.318029
6.948957	2140.378977	1556.657709	583.721267
6.966330	2123.152111	1538.054928	585.097184
6.983702	2105.926768	1519.481199	586.445569
7.001075	2088.707085	1500.940867	587.766218
7.018447	2071.497142	1482.438213	589.058930
7.035819	2054.300954	1463.977447	590.323507
7.053192	2037.122472	1445.562715	591.559756
7.070564	2019.965581	1427.198093	592.767489
7.087937	2002.834102	1408.887583	593.946519
7.105309	1985.731786	1390.635121	595.096666
7.122681	1968.662318	1372.444565	596.217753
7.140054	1951.629310	1354.319702	597.309608
7.157426	1934.636307	1336.264245	598.372062
7.174799	1917.686782	1318.281830	599.404952
7.192171	1900.784134	1300.376017	600.408118
7.209543	1883.931692	1282.550288	601.381404
7.226916	1867.132710	1264.808048	602.324661
7.244288	1850.390367	1247.152625	603.237742
7.261661	1833.707771	1229.587265	604.120506
7.279033	1817.087950	1212.115136	604.972815
7.296405	1800.533861	1194.739325	605.794536
7.313778	1784.048383	1177.462840	606.585543
7.331150	1767.634318	1160.288607	607.345711
7.348523	1751.294393	1143.219470	608.074923
7.365895	1735.031258	1126.258193	608.773065
7.383267	1718.847485	1109.407458	609.440027
7.400640	1702.745569	1092.669864	610.075706
7.418012	1686.727931	1076.047929	610.680001
7.435384	1670.796911	1059.544091	611.252820
7.452757	1654.954773	1043.160702	611.794071
7.470129	1639.203705	1026.900035	612.303670
7.487502	1623.545819	1010.764281	612.781538
7.504874	1607.983147	994.755548	613.227599
7.522246	1592.517648	978.875865	613.641783
7.539619	1577.151203	963.127178	614.024025
7.556991	1561.885618	947.511352	614.374266
7.574364	1546.722624	932.030174	614.692450
7.591736	1531.663875	916.685348	614.978527
7.609108	1516.710953	901.478500	615.232453
7.626481	1501.865364	886.411178	615.454187
7.643853	1487.128542	871.484848	615.643694
7.661226	1472.501848	856.700903	615.800945
7.678598	1457.986569	842.060653	615.925915
7.695970	1443.583921	827.565337	616.018584
7.713343	1429.295051	813.216113	616.078938
7.730715	1415.121034	799.014067	616.106967
7.748088	1401.062876	784.960209	616.102667
7.765460	1387.121514	771.055475	616.066038
7.782832	1373.297817	757.300730	615.997087
7.800205	1359.592588	743.696765	615.895823
7.817577	1346.006563	730.244300	615.762264
7.834950	1332.540414	716.943985	615.596429
7.852322	1319.194747	703.796401	615.398346
7.869694	1305.970107	690.802062	615.168045
7.887067	1292.866973	677.961411	614.905562
7.904439	1279.885767	665.274828	614.610939
7.921812	1267.026848	652.742626	614.284223
